Freq[Hz]     dBSPL  Phase[Deg]
5.00000    -51.041   -51.045
5.07273    -50.833   -51.088
5.14651    -50.564   -51.139
5.22137    -50.206   -51.196
5.29732    -49.813   -51.237
5.37437    -49.380   -51.277
5.45254    -48.948   -51.308
5.53185    -48.516   -51.337
5.61231    -48.084   -51.367
5.69394    -47.651   -51.396
5.77676    -47.219   -51.424
5.86079    -46.787   -51.453
5.94604    -46.355   -51.482
6.03252    -45.922   -51.510
6.12027    -45.490   -51.539
6.20929    -45.058   -51.567
6.29961    -44.625   -51.596
6.39124    -44.193   -51.625
6.48420    -43.761   -51.654
6.57851    -43.329   -51.683
6.67420    -42.896   -51.712
6.77128    -42.464   -51.741
6.86977    -42.032   -51.770
6.96969    -41.600   -51.799
7.07107    -41.167   -51.829
7.17392    -40.735   -51.859
7.27827    -40.303   -51.890
7.38413    -39.870   -51.920
7.49154    -39.438   -51.951
7.60050    -39.006   -51.981
7.71105    -38.574   -52.012
7.82321    -38.141   -52.043
7.93701    -37.709   -52.075
8.05245    -37.277   -52.107
8.16958    -36.845   -52.139
8.28841    -36.412   -52.172
8.40896    -35.980   -52.205
8.53128    -35.548   -52.238
8.65537    -35.116   -52.272
8.78126    -34.683   -52.306
8.90899    -34.251   -52.340
9.03857    -33.819   -52.375
9.17004    -33.386   -52.410
9.30342    -32.954   -52.446
9.43874    -32.522   -52.481
9.57603    -32.090   -52.518
9.71532    -31.657   -52.554
9.85663    -31.225   -52.591
10.0000    -30.793   -52.629
10.1455    -30.361   -52.666
10.2930    -29.928   -52.705
10.4427    -29.496   -52.744
10.5946    -29.064   -52.783
10.7487    -28.631   -52.823
10.9051    -28.199   -52.863
11.0637    -27.767   -52.904
11.2246    -27.335   -52.945
11.3879    -26.902   -52.986
11.5535    -26.470   -53.028
11.7216    -26.038   -53.071
11.8921    -25.606   -53.114
12.0650    -25.173   -53.158
12.2405    -24.741   -53.203
12.4186    -24.309   -53.248
12.5992    -23.877   -53.293
12.7825    -23.444   -53.339
12.9684    -23.012   -53.386
13.1570    -22.580   -53.433
13.3484    -22.147   -53.481
13.5426    -21.715   -53.529
13.7395    -21.283   -53.578
13.9394    -20.851   -53.628
14.1421    -20.418   -53.678
14.3478    -19.986   -53.729
14.5565    -19.554   -53.781
14.7683    -19.122   -53.834
14.9831    -18.689   -53.887
15.2010    -18.257   -53.941
15.4221    -17.825   -53.995
15.6464    -17.392   -54.050
15.8740    -16.960   -54.106
16.1049    -16.528   -54.162
16.3392    -16.096   -54.220
16.5768    -15.663   -54.278
16.8179    -15.231   -54.337
17.0626    -14.799   -54.396
17.3107    -14.367   -54.457
17.5625    -13.934   -54.518
17.8180    -13.502   -54.580
18.0771    -13.070   -54.643
18.3401    -12.638   -54.707
18.6068    -12.205   -54.772
18.8775    -11.773   -54.837
19.1521    -11.341   -54.904
19.4306    -10.908   -54.971
19.7133    -10.476   -55.040
20.0000    -10.044   -55.109
20.2909     -9.612   -55.179
20.5860     -9.179   -55.251
20.8855     -8.747   -55.323
21.1893     -8.315   -55.396
21.4975     -7.883   -55.470
21.8102     -7.450   -55.546
22.1274     -7.018   -55.622
22.4492     -6.586   -55.699
22.7758     -6.154   -55.778
23.1071     -5.721   -55.858
23.4432     -5.289   -55.938
23.7841     -4.857   -56.020
24.1301     -4.424   -56.103
24.4811     -3.992   -56.188
24.8372     -3.560   -56.273
25.1984     -3.128   -56.360
25.5649     -2.695   -56.447
25.9368     -2.263   -56.536
26.3141     -1.831   -56.627
26.6968     -1.399   -56.718
27.0851     -0.966   -56.811
27.4791     -0.534   -56.905
27.8788     -0.102   -57.001
28.2843      0.331   -57.098
28.6957      0.763   -57.196
29.1131      1.195   -57.296
29.5365      1.627   -57.397
29.9661      2.060   -57.499
30.4020      2.492   -57.603
30.8442      2.924   -57.709
31.2929      3.356   -57.816
31.7480      3.789   -57.925
32.2098      4.221   -58.035
32.6783      4.653   -58.147
33.1536      5.085   -58.260
33.6359      5.518   -58.375
34.1251      5.950   -58.491
34.6215      6.382   -58.610
35.1250      6.815   -58.729
35.6359      7.247   -58.851
36.1543      7.679   -58.974
36.6802      8.111   -59.099
37.2137      8.544   -59.227
37.7550      8.976   -59.355
38.3041      9.408   -59.486
38.8613      9.840   -59.619
39.4265     10.273   -59.753
40.0000     10.705   -59.890
40.5818     11.137   -60.028
41.1721     11.570   -60.168
41.7710     12.002   -60.311
42.3785     12.434   -60.455
42.9949     12.866   -60.602
43.6203     13.299   -60.751
44.2548     13.731   -60.902
44.8985     14.163   -61.055
45.5515     14.595   -61.210
46.2141     15.028   -61.368
46.8863     15.460   -61.527
47.5683     15.892   -61.690
48.2602     16.324   -61.854
48.9621     16.757   -62.021
49.6743     17.189   -62.190
50.3968     17.621   -62.362
51.1299     18.054   -62.537
51.8736     18.486   -62.714
52.6281     18.918   -62.893
53.3936     19.350   -63.075
54.1702     19.783   -63.260
54.9581     20.215   -63.447
55.7575     20.647   -63.637
56.5685     21.079   -63.830
57.3914     21.512   -64.026
58.2261     21.944   -64.225
59.0730     22.376   -64.426
59.9323     22.808   -64.631
60.8040     23.241   -64.839
61.6884     23.673   -65.049
62.5857     24.105   -65.263
63.4960     24.538   -65.480
64.4196     24.970   -65.700
65.3566     25.402   -65.923
66.3073     25.834   -66.150
67.2717     26.267   -66.380
68.2502     26.699   -66.613
69.2429     27.131   -66.850
70.2501     27.563   -67.090
71.2719     27.996   -67.334
72.3086     28.428   -67.581
73.3603     28.860   -67.832
74.4274     29.293   -68.087
75.5099     29.725   -68.345
76.6083     30.157   -68.608
77.7226     30.589   -68.874
78.8531     31.022   -69.144
80.0000     31.454   -69.418
81.1636     31.886   -69.697
82.3442     32.318   -69.979
83.5419     32.751   -70.266
84.7570     33.183   -70.557
85.9899     33.615   -70.852
87.2406     34.047   -71.152
88.5096     34.480   -71.456
89.7970     34.912   -71.765
91.1031     35.344   -72.078
92.4282     35.777   -72.396
93.7726     36.209   -72.719
95.1366     36.641   -73.047
96.5204     37.073   -73.380
97.9243     37.506   -73.718
99.3486     37.938   -74.060
100.794     38.370   -74.409
102.260     38.802   -74.762
103.747     39.235   -75.121
105.256     39.667   -75.485
106.787     40.099   -75.854
108.340     40.532   -76.230
109.916     40.964   -76.611
111.515     41.396   -76.998
113.137     41.828   -77.390
114.783     42.261   -77.789
116.452     42.693   -78.194
118.146     43.125   -78.605
119.865     43.557   -79.023
121.608     43.990   -79.447
123.377     44.422   -79.878
125.171     44.854   -80.315
126.992     45.286   -80.759
128.839     45.719   -81.210
130.713     46.151   -81.668
132.615     46.583   -82.133
134.543     47.016   -82.606
136.500     47.448   -83.086
138.486     47.880   -83.573
140.500     48.312   -84.069
142.544     48.745   -84.572
144.617     49.177   -85.083
146.721     49.609   -85.602
148.855     50.041   -86.130
151.020     50.474   -86.666
153.217     50.906   -87.211
155.445     51.338   -87.765
157.706     51.770   -88.327
160.000     52.203   -88.899
162.327     52.635   -89.481
164.688     53.067   -90.071
167.084     53.500   -90.672
169.514     53.932   -91.283
171.980     54.364   -91.903
174.481     54.796   -92.535
177.019     55.229   -93.177
179.594     55.661   -93.829
182.206     56.093   -94.493
184.856     56.525   -95.169
187.545     56.958   -95.856
190.273     57.390   -96.555
193.041     57.822   -97.266
195.849     58.255   -97.990
198.697     58.687   -98.727
201.587     59.119   -99.477
204.520     59.551  -100.240
207.494     59.984  -101.018
210.512     60.416  -101.810
213.574     60.848  -102.616
216.681     61.280  -103.438
219.833     61.713  -104.276
223.030     62.145  -105.130
226.274     62.577  -106.001
229.565     63.009  -106.889
232.905     63.442  -107.795
236.292     63.874  -108.719
239.729     64.306  -109.664
243.216     64.739  -110.628
246.754     65.171  -111.614
250.343     65.603  -112.622
253.984     66.035  -113.654
257.678     66.468  -114.711
261.426     66.900  -115.796
265.229     67.332  -116.909
269.087     67.764  -118.055
273.001     68.197  -119.237
276.972     68.629  -120.463
281.000     69.061  -121.742
285.088     69.494  -123.105
289.234     69.911  -124.558
293.441     70.308  -126.082
297.709     70.663  -127.572
302.040     70.992  -128.856
306.433     71.341  -129.908
310.890     71.717  -130.790
315.412     72.137  -131.563
320.000     72.622  -132.411
324.655     73.144  -133.512
329.377     73.691  -134.942
334.168     74.241  -136.772
339.028     74.763  -139.008
343.959     75.235  -141.597
348.962     75.634  -144.415
354.038     75.958  -147.271
359.188     76.220  -150.002
364.412     76.436  -152.501
369.713     76.627  -154.729
375.090     76.805  -156.689
380.546     76.981  -158.393
386.081     77.167  -159.862
391.697     77.372  -161.125
397.394     77.615  -162.267
403.175     77.891  -163.392
409.039     78.196  -164.586
414.989     78.517  -165.923
421.025     78.836  -167.421
427.149     79.145  -169.057
433.362     79.432  -170.790
439.665     79.690  -172.531
446.060     79.934  -174.231
452.548     80.161  -175.864
459.131     80.376  -177.383
465.809     80.594  -178.781
472.584     80.819   179.919
479.458     81.057   178.695
486.432     81.311   177.510
493.507     81.585   176.318
500.686     81.875   175.063
507.968     82.176   173.706
515.357     82.480   172.218
522.853     82.774   170.599
530.458     83.049   168.891
538.174     83.306   167.143
546.002     83.544   165.400
553.943     83.766   163.712
562.001     83.985   162.087
570.175     84.201   160.520
578.469     84.423   158.986
586.883     84.648   157.446
595.419     84.866   155.908
604.080     85.083   154.392
612.866     85.300   152.891
621.780     85.519   151.410
630.824     85.743   149.938
640.000     85.973   148.447
649.309     86.203   146.940
658.753     86.442   145.404
668.335     86.688   143.797
678.056     86.933   142.102
687.919     87.175   140.304
697.925     87.404   138.399
708.077     87.614   136.419
718.376     87.799   134.428
728.825     87.974   132.463
739.426     88.144   130.485
750.181     88.295   128.493
761.093     88.431   126.521
772.163     88.552   124.575
783.394     88.658   122.671
794.789     88.748   120.831
806.349     88.824   119.082
818.078     88.893   117.425
829.977     88.948   115.879
842.050     88.997   114.494
854.298     89.052   113.274
866.724     89.117   112.210
879.330     89.209   111.261
892.120     89.321   110.389
905.097     89.468   109.561
918.262     89.657   108.671
931.618     89.875   107.625
945.169     90.117   106.352
958.917     90.359   104.795
972.864     90.578   102.993
987.015     90.775   101.002
1001.37     90.933    98.888
1015.94     91.054    96.758
1030.71     91.159    94.626
1045.71     91.234    92.477
1060.92     91.268    90.394
1076.35     91.277    88.459
1092.00     91.265    86.722
1107.89     91.253    85.202
1124.00     91.257    83.845
1140.35     91.280    82.578
1156.94     91.327    81.320
1173.77     91.387    80.005
1190.84     91.452    78.613
1208.16     91.516    77.133
1225.73     91.571    75.557
1243.56     91.609    73.892
1261.65     91.612    72.200
1280.00     91.574    70.619
1298.62     91.521    69.246
1317.51     91.472    68.061
1336.67     91.431    67.020
1356.11     91.409    66.074
1375.84     91.399    65.180
1395.85     91.399    64.342
1416.15     91.421    63.548
1436.75     91.477    62.714
1457.65     91.562    61.711
1478.85     91.653    60.443
1500.36     91.723    58.908
1522.19     91.741    57.220
1544.33     91.708    55.556
1566.79     91.642    54.018
1589.58     91.558    52.626
1612.70     91.460    51.382
1636.16     91.353    50.300
1659.95     91.250    49.360
1684.10     91.154    48.511
1708.60     91.062    47.723
1733.45     90.975    46.965
1758.66     90.881    46.222
1784.24     90.771    45.541
1810.19     90.642    45.012
1836.52     90.510    44.705
1863.24     90.408    44.552
1890.34     90.322    44.454
1917.83     90.241    44.428
1945.73     90.179    44.483
1974.03     90.135    44.579
2002.74     90.109    44.696
2031.87     90.107    44.789
2061.43     90.127    44.777
2091.41     90.146    44.624
2121.83     90.145    44.399
2152.69     90.129    44.178
2184.01     90.097    44.020
2215.77     90.059    43.975
2248.00     90.026    44.037
2280.70     89.995    44.225
2313.87     89.988    44.517
2347.53     90.003    44.847
2381.68     90.041    45.187
2416.32     90.116    45.436
2451.46     90.192    45.537
2487.12     90.265    45.546
2523.30     90.342    45.444
2560.00     90.395    45.257
2597.24     90.430    45.077
2635.01     90.449    44.939
2673.34     90.448    44.910
2712.23     90.438    45.060
2751.68     90.432    45.425
2791.70     90.447    46.015
2832.31     90.507    46.768
2873.50     90.618    47.573
2915.30     90.781    48.339
2957.70     91.000    48.939
3000.72     91.252    49.271
3044.37     91.518    49.320
3088.65     91.791    49.092
3133.58     92.058    48.617
3179.16     92.325    47.918
3225.40     92.592    46.963
3272.31     92.846    45.725
3319.91     93.080    44.172
3368.20     93.268    42.314
3417.19     93.388    40.271
3466.89     93.444    38.175
3517.32     93.435    36.145
3568.48     93.374    34.270
3620.39     93.268    32.590
3673.05     93.116    31.171
3726.47     92.929    30.107
3780.67     92.720    29.468
3835.67     92.509    29.305
3891.46     92.334    29.590
3948.06     92.219    30.201
4005.49     92.180    30.975
4063.75     92.214    31.739
4122.86     92.308    32.366
4182.82     92.449    32.768
4243.66     92.621    32.875
4305.39     92.802    32.677
4368.01     92.983    32.175
4431.55     93.147    31.390
4496.01     93.281    30.390
4561.40     93.387    29.230
4627.75     93.456    27.953
4695.06     93.479    26.645
4763.35     93.463    25.393
4832.64     93.410    24.274
4902.93     93.327    23.383
4974.24     93.241    22.761
5046.60     93.172    22.363
5120.00     93.140    22.089
5194.47     93.147    21.791
5270.03     93.176    21.366
5346.68     93.213    20.773
5424.45     93.244    20.008
5503.35     93.256    19.103
5583.40     93.247    18.088
5664.61     93.205    16.993
5747.01     93.120    15.901
5830.60     92.990    14.924
5915.41     92.822    14.170
6001.45     92.631    13.720
6088.74     92.442    13.591
6177.30     92.274    13.727
6267.15     92.138    14.041
6358.31     92.032    14.460
6450.80     91.955    14.925
6544.62     91.900    15.402
6639.82     91.868    15.877
6736.40     91.857    16.318
6834.38     91.859    16.714
6933.79     91.879    17.057
7034.64     91.913    17.318
7136.96     91.954    17.486
7240.77     92.001    17.563
7346.09     92.052    17.544
7452.94     92.102    17.425
7561.35     92.151    17.203
7671.33     92.195    16.871
7782.91     92.227    16.430
7896.12     92.239    15.897
8010.97     92.228    15.306
8127.49     92.183    14.723
8245.71     92.109    14.234
8365.65     92.019    13.872
8487.33     91.908    13.680
8610.78     91.794    13.708
8736.03     91.696    13.926
8863.09     91.613    14.293
8992.01     91.562    14.768
9122.80     91.549    15.250
9255.50     91.564    15.653
9390.12     91.597    15.928
9526.70     91.633    16.072
9665.27     91.667    16.120
9805.86     91.701    16.089
9948.49     91.732    15.990
10093.2     91.767    15.807
10240.0     91.798    15.502
10388.9     91.814    15.075
10540.1     91.803    14.582
10693.4     91.765    14.111
10848.9     91.713    13.698
11006.7     91.654    13.337
11166.8     91.594    13.001
11329.2     91.531    12.637
11494.0     91.445    12.268
11661.2     91.343    11.951
11830.8     91.223    11.713
12002.9     91.090    11.592
12177.5     90.958    11.582
12354.6     90.825    11.656
12534.3     90.689    11.808
12716.6     90.548    12.074
12901.6     90.416    12.459
13089.2     90.303    12.898
13279.6     90.200    13.342
13472.8     90.109    13.751
13668.8     90.014    14.115
13867.6     89.910    14.472
14069.3     89.802    14.836
14273.9     89.686    15.201
14481.5     89.561    15.567
14692.2     89.418    15.969
14905.9     89.261    16.433
15122.7     89.079    17.003
15342.7     88.880    17.754
15565.8     88.681    18.674
15792.2     88.469    19.772
16021.9     88.250    21.123
16255.0     88.039    22.755
16491.4     87.843    24.669
16731.3     87.687    26.826
16974.7     87.576    29.128
17221.6     87.508    31.500
17472.1     87.474    33.901
17726.2     87.466    36.347
17984.0     87.491    38.865
18245.6     87.567    41.407
18511.0     87.692    43.874
18780.2     87.856    46.219
19053.4     88.058    48.392
19330.5     88.283    50.359
19611.7     88.525    52.144
19897.0     88.794    53.726
20186.4     89.077    55.045
20480.0     89.360    56.085
20777.9     89.631    56.865
21080.1     89.878    57.443
21386.7     90.104    57.887
21697.8     90.307    58.246
22013.4     90.495    58.549
22333.6     90.670    58.794
22658.4     90.828    58.988
22988.0     90.974    59.137
23322.4     91.102    59.238
23661.6     91.205    59.326
24005.8     91.289    59.431
24355.0     91.347    59.589
24709.2     91.386    59.856
25068.6     91.415    60.253
25433.2     91.439    60.778
25803.2     91.464    61.422
26178.5     91.493    62.169
26559.3     91.525    63.013
26945.6     91.560    63.972
27337.5     91.612    65.033
27735.2     91.685    66.138
28138.6     91.770    67.254
28547.9     91.865    68.370
28963.1     91.968    69.470
29384.4     92.067    70.588
29811.8     92.166    71.782
30245.4     92.278    73.067
30685.3     92.409    74.432
31131.7     92.569    75.834
31584.5     92.756    77.212
32043.9     92.966    78.537
32510.0     93.201    79.764
32982.8     93.450    80.864
33462.6     93.710    81.832
33949.3     93.975    82.645
34443.1     94.226    83.337
34944.1     94.466    83.990
35452.4     94.702    84.654
35968.0     94.944    85.359
36491.2     95.211    86.080
37022.0     95.508    86.735
37560.5     95.834    87.227
38106.8     96.150    87.502
38661.1     96.441    87.546
39223.4     96.660    87.499
39793.9     96.833    87.396
