Freq[Hz]  Imp[Ohm]  Phase[Deg]
5.00000      5.537     0.416
5.07273      5.537     0.419
5.14651      5.537     0.423
5.22137      5.537     0.428
5.29732      5.538     0.433
5.37437      5.538     0.439
5.45254      5.538     0.445
5.53185      5.538     0.452
5.61231      5.538     0.458
5.69394      5.538     0.465
5.77676      5.538     0.471
5.86079      5.538     0.478
5.94604      5.538     0.485
6.03252      5.538     0.492
6.12027      5.538     0.499
6.20929      5.538     0.506
6.29961      5.538     0.513
6.39124      5.538     0.520
6.48420      5.538     0.528
6.57851      5.538     0.535
6.67420      5.538     0.543
6.77128      5.538     0.551
6.86977      5.538     0.558
6.96969      5.538     0.566
7.07107      5.538     0.575
7.17392      5.538     0.583
7.27827      5.538     0.591
7.38413      5.538     0.600
7.49154      5.538     0.608
7.60050      5.538     0.617
7.71105      5.538     0.626
7.82321      5.538     0.635
7.93701      5.538     0.644
8.05245      5.538     0.653
8.16958      5.538     0.662
8.28841      5.538     0.672
8.40896      5.538     0.682
8.53128      5.538     0.691
8.65537      5.538     0.701
8.78126      5.538     0.711
8.90899      5.538     0.721
9.03857      5.538     0.732
9.17004      5.538     0.742
9.30342      5.538     0.753
9.43874      5.538     0.764
9.57603      5.539     0.775
9.71532      5.539     0.786
9.85663      5.539     0.797
10.0000      5.539     0.809
10.1455      5.539     0.820
10.2930      5.539     0.832
10.4427      5.539     0.844
10.5946      5.539     0.856
10.7487      5.539     0.869
10.9051      5.539     0.881
11.0637      5.539     0.894
11.2246      5.539     0.907
11.3879      5.539     0.920
11.5535      5.539     0.933
11.7216      5.539     0.946
11.8921      5.539     0.960
12.0650      5.539     0.974
12.2405      5.539     0.988
12.4186      5.539     1.002
12.5992      5.539     1.016
12.7825      5.540     1.031
12.9684      5.540     1.046
13.1570      5.540     1.061
13.3484      5.540     1.076
13.5426      5.540     1.092
13.7395      5.540     1.107
13.9394      5.540     1.123
14.1421      5.540     1.139
14.3478      5.540     1.156
14.5565      5.540     1.172
14.7683      5.540     1.189
14.9831      5.540     1.206
15.2010      5.540     1.224
15.4221      5.541     1.242
15.6464      5.541     1.259
15.8740      5.541     1.278
16.1049      5.541     1.296
16.3392      5.541     1.315
16.5768      5.541     1.334
16.8179      5.541     1.353
17.0626      5.541     1.373
17.3107      5.541     1.392
17.5625      5.542     1.412
17.8180      5.542     1.433
18.0771      5.542     1.454
18.3401      5.542     1.475
18.6068      5.542     1.496
18.8775      5.542     1.517
19.1521      5.542     1.539
19.4306      5.542     1.561
19.7133      5.543     1.584
20.0000      5.543     1.607
20.2909      5.543     1.630
20.5860      5.543     1.653
20.8855      5.543     1.677
21.1893      5.543     1.701
21.4975      5.544     1.726
21.8102      5.544     1.751
22.1274      5.544     1.776
22.4492      5.544     1.802
22.7758      5.544     1.828
23.1071      5.544     1.854
23.4432      5.545     1.881
23.7841      5.545     1.908
24.1301      5.545     1.935
24.4811      5.545     1.963
24.8372      5.545     1.991
25.1984      5.546     2.020
25.5649      5.546     2.049
25.9368      5.546     2.078
26.3141      5.546     2.108
26.6968      5.547     2.139
27.0851      5.547     2.169
27.4791      5.547     2.201
27.8788      5.547     2.232
28.2843      5.548     2.264
28.6957      5.548     2.297
29.1131      5.548     2.330
29.5365      5.549     2.363
29.9661      5.549     2.397
30.4020      5.549     2.432
30.8442      5.549     2.467
31.2929      5.550     2.502
31.7480      5.550     2.538
32.2098      5.551     2.574
32.6783      5.551     2.611
33.1536      5.551     2.649
33.6359      5.552     2.687
34.1251      5.552     2.725
34.6215      5.552     2.764
35.1250      5.553     2.804
35.6359      5.553     2.844
36.1543      5.554     2.885
36.6802      5.554     2.926
37.2137      5.555     2.968
37.7550      5.555     3.010
38.3041      5.555     3.053
38.8613      5.556     3.097
39.4265      5.556     3.141
40.0000      5.557     3.186
40.5818      5.557     3.232
41.1721      5.558     3.278
41.7710      5.559     3.325
42.3785      5.559     3.373
42.9949      5.560     3.421
43.6203      5.560     3.470
44.2548      5.561     3.519
44.8985      5.562     3.569
45.5515      5.562     3.620
46.2141      5.563     3.672
46.8863      5.564     3.724
47.5683      5.564     3.777
48.2602      5.565     3.831
48.9621      5.566     3.886
49.6743      5.566     3.941
50.3968      5.567     3.997
51.1299      5.568     4.054
51.8736      5.569     4.112
52.6281      5.570     4.171
53.3936      5.571     4.230
54.1702      5.571     4.290
54.9581      5.572     4.351
55.7575      5.573     4.413
56.5685      5.574     4.476
57.3914      5.575     4.539
58.2261      5.576     4.604
59.0730      5.577     4.669
59.9323      5.578     4.735
60.8040      5.579     4.802
61.6884      5.581     4.871
62.5857      5.582     4.940
63.4960      5.583     5.010
64.4196      5.584     5.081
65.3566      5.585     5.153
66.3073      5.587     5.225
67.2717      5.588     5.299
68.2502      5.589     5.374
69.2429      5.591     5.450
70.2501      5.592     5.527
71.2719      5.594     5.606
72.3086      5.595     5.685
73.3603      5.597     5.765
74.4274      5.598     5.846
75.5099      5.600     5.929
76.6083      5.601     6.013
77.7226      5.603     6.097
78.8531      5.605     6.183
80.0000      5.607     6.270
81.1636      5.608     6.359
82.3442      5.610     6.448
83.5419      5.612     6.539
84.7570      5.614     6.631
85.9899      5.616     6.724
87.2406      5.618     6.819
88.5096      5.620     6.914
89.7970      5.623     7.011
91.1031      5.625     7.110
92.4282      5.627     7.210
93.7726      5.630     7.311
95.1366      5.632     7.413
96.5204      5.635     7.517
97.9243      5.637     7.622
99.3486      5.640     7.729
100.794      5.642     7.837
102.260      5.645     7.947
103.747      5.648     8.058
105.256      5.651     8.170
106.787      5.654     8.284
108.340      5.657     8.400
109.916      5.660     8.517
111.515      5.664     8.636
113.137      5.667     8.756
114.783      5.670     8.878
116.452      5.674     9.002
118.146      5.677     9.127
119.865      5.681     9.254
121.608      5.685     9.382
123.377      5.689     9.513
125.171      5.693     9.645
126.992      5.697     9.779
128.839      5.701     9.914
130.713      5.705    10.052
132.615      5.710    10.191
134.543      5.714    10.332
136.500      5.719    10.475
138.486      5.724    10.620
140.500      5.729    10.767
142.544      5.734    10.916
144.617      5.739    11.066
146.721      5.744    11.219
148.855      5.750    11.374
151.020      5.755    11.531
153.217      5.761    11.690
155.445      5.767    11.851
157.706      5.773    12.014
160.000      5.779    12.180
162.327      5.786    12.347
164.688      5.792    12.517
167.084      5.799    12.689
169.514      5.806    12.864
171.980      5.813    13.040
174.481      5.820    13.220
177.019      5.828    13.401
179.594      5.835    13.585
182.206      5.843    13.772
184.856      5.851    13.961
187.545      5.860    14.152
190.273      5.868    14.347
193.041      5.877    14.544
195.849      5.886    14.743
198.697      5.895    14.946
201.587      5.904    15.151
204.520      5.914    15.359
207.494      5.924    15.570
210.512      5.934    15.784
213.574      5.945    16.001
216.681      5.955    16.221
219.833      5.966    16.444
223.030      5.978    16.671
226.274      5.989    16.901
229.565      6.001    17.134
232.905      6.013    17.371
236.292      6.026    17.611
239.729      6.039    17.856
243.216      6.052    18.104
246.754      6.066    18.356
250.343      6.079    18.613
253.984      6.094    18.873
257.678      6.108    19.139
261.426      6.123    19.409
265.229      6.139    19.684
269.087      6.155    19.965
273.001      6.171    20.251
276.972      6.188    20.543
281.000      6.205    20.841
285.088      6.222    21.146
289.234      6.240    21.457
293.441      6.257    21.779
297.709      6.273    22.130
302.040      6.291    22.523
306.433      6.312    22.964
310.890      6.349    23.409
315.412      6.397    23.779
320.000      6.443    24.061
324.655      6.488    24.258
329.377      6.520    24.386
334.168      6.533    24.541
339.028      6.538    24.786
343.959      6.538    25.144
348.962      6.544    25.617
354.038      6.557    26.190
359.188      6.589    26.812
364.412      6.637    27.396
369.713      6.689    27.928
375.090      6.749    28.394
380.546      6.806    28.774
386.081      6.848    29.154
391.697      6.893    29.583
397.394      6.937    30.041
403.175      6.979    30.565
409.039      7.040    31.124
414.989      7.107    31.652
421.025      7.177    32.156
427.149      7.253    32.627
433.362      7.327    33.059
439.665      7.393    33.504
446.060      7.460    33.996
452.548      7.532    34.530
459.131      7.611    35.098
465.809      7.700    35.676
472.584      7.796    36.238
479.458      7.892    36.810
486.432      7.997    37.396
493.507      8.105    37.998
500.686      8.224    38.628
507.968      8.355    39.254
515.357      8.494    39.871
522.853      8.643    40.484
530.458      8.798    41.094
538.174      8.960    41.728
546.002      9.137    42.393
553.943      9.332    43.071
562.001      9.543    43.759
570.175      9.777    44.454
578.469     10.036    45.133
586.883     10.318    45.793
595.419     10.627    46.440
604.080     10.969    47.062
612.866     11.348    47.650
621.780     11.769    48.192
630.824     12.236    48.667
640.000     12.754    49.055
649.309     13.319    49.355
658.753     13.944    49.569
668.335     14.637    49.686
678.056     15.399    49.718
687.919     16.267    49.656
697.925     17.253    49.474
708.077     18.413    49.111
718.376     19.760    48.483
728.825     21.331    47.533
739.426     23.217    46.095
750.181     25.373    43.988
761.093     27.768    41.150
772.163     30.403    37.477
783.394     33.173    32.865
794.789     35.945    27.282
806.349     38.498    20.719
818.078     40.535    13.260
829.977     41.756     5.119
842.050     41.966    -3.393
854.298     41.000   -11.803
866.724     39.114   -19.670
879.330     36.499   -26.667
892.120     33.486   -32.499
905.097     30.499   -37.138
918.262     27.707   -40.715
931.618     25.244   -43.414
945.169     23.157   -45.467
958.917     21.348   -47.037
972.864     19.801   -48.255
987.015     18.386   -49.139
1001.37     17.151   -49.680
1015.94     16.062   -49.957
1030.71     15.090   -49.979
1045.71     14.249   -49.791
1060.92     13.505   -49.450
1076.35     12.854   -48.975
1092.00     12.284   -48.412
1107.89     11.780   -47.789
1124.00     11.327   -47.107
1140.35     10.934   -46.399
1156.94     10.580   -45.704
1173.77     10.257   -45.018
1190.84      9.961   -44.340
1208.16      9.681   -43.656
1225.73      9.416   -42.934
1243.56      9.171   -42.160
1261.65      8.952   -41.356
1280.00      8.753   -40.551
1298.62      8.570   -39.743
1317.51      8.404   -38.935
1336.67      8.254   -38.149
1356.11      8.110   -37.378
1375.84      7.977   -36.605
1395.85      7.855   -35.839
1416.15      7.738   -35.073
1436.75      7.632   -34.298
1457.65      7.539   -33.540
1478.85      7.450   -32.799
1500.36      7.375   -32.092
1522.19      7.301   -31.435
1544.33      7.228   -30.799
1566.79      7.159   -30.180
1589.58      7.087   -29.557
1612.70      7.019   -28.905
1636.16      6.960   -28.255
1659.95      6.902   -27.606
1684.10      6.853   -26.956
1708.60      6.813   -26.349
1733.45      6.770   -25.776
1758.66      6.729   -25.207
1784.24      6.693   -24.661
1810.19      6.653   -24.126
1836.52      6.617   -23.574
1863.24      6.588   -23.038
1890.34      6.561   -22.534
1917.83      6.538   -22.071
1945.73      6.513   -21.661
1974.03      6.481   -21.273
2002.74      6.443   -20.866
2031.87      6.398   -20.389
2061.43      6.359   -19.830
2091.41      6.330   -19.230
2121.83      6.311   -18.623
2152.69      6.305   -18.055
2184.01      6.302   -17.553
2215.77      6.302   -17.113
2248.00      6.302   -16.736
2280.70      6.299   -16.412
2313.87      6.293   -16.133
2347.53      6.276   -15.868
2381.68      6.254   -15.565
2416.32      6.231   -15.214
2451.46      6.209   -14.814
2487.12      6.193   -14.372
2523.30      6.186   -13.935
2560.00      6.183   -13.530
2597.24      6.183   -13.161
2635.01      6.183   -12.823
2673.34      6.183   -12.507
2712.23      6.183   -12.211
2751.68      6.183   -11.931
2791.70      6.183   -11.667
2832.31      6.183   -11.418
2873.50      6.183   -11.185
2915.30      6.183   -10.969
2957.70      6.183   -10.774
3000.72      6.183   -10.608
3044.37      6.181   -10.474
3088.65      6.174   -10.370
3133.58      6.158   -10.265
3179.16      6.136   -10.112
3225.40      6.113    -9.902
3272.31      6.090    -9.635
3319.91      6.074    -9.322
3368.20      6.068    -9.012
3417.19      6.065    -8.737
3466.89      6.065    -8.504
3517.32      6.065    -8.320
3568.48      6.062    -8.180
3620.39      6.056    -8.080
3673.05      6.040    -7.990
3726.47      6.017    -7.871
3780.67      5.992    -7.714
3835.67      5.963    -7.515
3891.46      5.931    -7.253
3948.06      5.902    -6.927
4005.49      5.876    -6.555
4063.75      5.854    -6.141
4122.86      5.838    -5.690
4182.82      5.831    -5.244
4243.66      5.828    -4.827
4305.39      5.828    -4.442
4368.01      5.828    -4.081
4431.55      5.828    -3.736
4496.01      5.828    -3.400
4561.40      5.828    -3.071
4627.75      5.828    -2.745
4695.06      5.828    -2.420
4763.35      5.828    -2.095
4832.64      5.828    -1.765
4902.93      5.828    -1.427
4974.24      5.828    -1.073
5046.60      5.830    -0.696
5120.00      5.835    -0.297
5194.47      5.848     0.107
5270.03      5.868     0.472
5346.68      5.890     0.777
5424.45      5.913     1.019
5503.35      5.931     1.210
5583.40      5.942     1.393
5664.61      5.949     1.610
5747.01      5.956     1.871
5830.60      5.972     2.145
5915.41      5.995     2.378
6001.45      6.017     2.553
6088.74      6.040     2.668
6177.30      6.056     2.731
6267.15      6.062     2.791
6358.31      6.065     2.877
6450.80      6.065     2.992
6544.62      6.065     3.132
6639.82      6.065     3.290
6736.40      6.065     3.460
6834.38      6.065     3.644
6933.79      6.065     3.839
7034.64      6.065     4.048
7136.96      6.065     4.273
7240.77      6.065     4.524
7346.09      6.068     4.802
7452.94      6.074     5.105
7561.35      6.090     5.404
7671.33      6.113     5.650
7782.91      6.136     5.835
7896.12      6.158     5.957
8010.97      6.174     6.027
8127.49      6.181     6.093
8245.71      6.183     6.185
8365.65      6.183     6.307
8487.33      6.183     6.455
8610.78      6.183     6.622
8736.03      6.183     6.805
8863.09      6.183     7.005
8992.01      6.183     7.224
9122.80      6.183     7.470
9255.50      6.186     7.746
9390.12      6.193     8.049
9526.70      6.209     8.349
9665.27      6.231     8.600
9805.86      6.254     8.793
9948.49      6.276     8.928
10093.2      6.293     9.014
10240.0      6.299     9.100
10388.9      6.302     9.215
10540.1      6.302     9.363
10693.4      6.302     9.544
10848.9      6.302     9.751
11006.7      6.302     9.989
11166.8      6.304    10.260
11329.2      6.309    10.563
11494.0      6.321    10.879
11661.2      6.341    11.170
11830.8      6.364    11.412
12002.9      6.386    11.604
12177.5      6.405    11.752
12354.6      6.415    11.892
12534.3      6.419    12.063
12716.6      6.420    12.285
12901.6      6.421    12.575
13089.2      6.427    12.930
13279.6      6.441    13.336
13472.8      6.474    13.736
13668.8      6.519    14.042
13867.6      6.565    14.242
14069.3      6.609    14.339
14273.9      6.639    14.364
14481.5      6.654    14.408
14692.2      6.666    14.519
14905.9      6.682    14.675
15122.7      6.705    14.827
15342.7      6.727    14.951
15565.8      6.750    15.041
15792.2      6.766    15.104
16021.9      6.772    15.185
16255.0      6.775    15.317
16491.4      6.777    15.506
16731.3      6.783    15.748
16974.7      6.796    16.015
17221.6      6.817    16.266
17472.1      6.840    16.484
17726.2      6.863    16.671
17984.0      6.881    16.841
18245.6      6.893    17.030
18511.0      6.906    17.261
18780.2      6.924    17.516
19053.4      6.946    17.762
19330.5      6.969    17.994
19611.7      6.990    18.224
19897.0      7.010    18.471
20186.4      7.028    18.770
20480.0      7.062    19.092
20777.9      7.107    19.356
21080.1      7.153    19.547
21386.7      7.198    19.666
21697.8      7.234    19.728
22013.4      7.255    19.810
22333.6      7.278    19.936
22658.4      7.300    20.079
22988.0      7.323    20.236
23322.4      7.347    20.395
23661.6      7.368    20.565
24005.8      7.390    20.758
24355.0      7.415    20.962
24709.2      7.440    21.173
25068.6      7.469    21.387
25433.2      7.501    21.585
25803.2      7.530    21.769
26178.5      7.557    21.963
26559.3      7.585    22.169
26945.6      7.613    22.384
27337.5      7.640    22.619
27735.2      7.670    22.884
28138.6      7.703    23.175
28547.9      7.750    23.460
28963.1      7.803    23.695
29384.4      7.854    23.885
29811.8      7.905    24.041
30245.4      7.952    24.167
30685.3      7.991    24.296
31131.7      8.027    24.459
31584.5      8.067    24.656
32043.9      8.114    24.856
32510.0      8.160    25.063
32982.8      8.219    25.258
33462.6      8.282    25.394
33949.3      8.338    25.494
34443.1      8.395    25.575
34944.1      8.448    25.629
35452.4      8.490    25.702
35968.0      8.537    25.806
36491.2      8.586    25.911
37022.0      8.639    26.011
37560.5      8.693    26.094
38106.8      8.737    26.166
38661.1      8.778    26.244
39223.4      8.811    26.302
39793.9      8.829    26.359
