Freq[Hz]  Imp[Ohm]  Phase[Deg]
5.00000      6.710    17.041
5.07273      6.714    17.112
5.14651      6.719    17.207
5.22137      6.726    17.336
5.29732      6.733    17.483
5.37437      6.742    17.648
5.45254      6.751    17.818
5.53185      6.760    17.992
5.61231      6.770    18.170
5.69394      6.780    18.351
5.77676      6.790    18.536
5.86079      6.800    18.725
5.94604      6.810    18.918
6.03252      6.821    19.114
6.12027      6.832    19.313
6.20929      6.844    19.516
6.29961      6.855    19.723
6.39124      6.867    19.933
6.48420      6.880    20.147
6.57851      6.892    20.365
6.67420      6.905    20.586
6.77128      6.919    20.811
6.86977      6.932    21.040
6.96969      6.946    21.272
7.07107      6.961    21.508
7.17392      6.976    21.749
7.27827      6.991    21.992
7.38413      7.006    22.240
7.49154      7.022    22.492
7.60050      7.039    22.748
7.71105      7.055    23.009
7.82321      7.073    23.273
7.93701      7.090    23.542
8.05245      7.109    23.815
8.16958      7.127    24.094
8.28841      7.146    24.376
8.40896      7.166    24.664
8.53128      7.186    24.958
8.65537      7.207    25.257
8.78126      7.228    25.561
8.90899      7.250    25.872
9.03857      7.272    26.190
9.17004      7.295    26.515
9.30342      7.319    26.849
9.43874      7.343    27.191
9.57603      7.368    27.545
9.71532      7.393    27.911
9.85663      7.419    28.293
10.0000      7.446    28.700
10.1455      7.475    29.138
10.2930      7.508    29.615
10.4427      7.552    30.114
10.5946      7.607    30.596
10.7487      7.670    31.043
10.9051      7.740    31.425
11.0637      7.807    31.748
11.2246      7.872    32.042
11.3879      7.934    32.313
11.5535      7.989    32.604
11.7216      8.054    32.910
11.8921      8.119    33.196
12.0650      8.187    33.471
12.2405      8.258    33.723
12.4186      8.325    33.959
12.5992      8.395    34.192
12.7825      8.465    34.417
12.9684      8.538    34.635
13.1570      8.617    34.820
13.3484      8.694    34.955
13.5426      8.764    35.057
13.7395      8.823    35.164
13.9394      8.877    35.308
14.1421      8.931    35.491
14.3478      8.987    35.710
14.5565      9.052    35.938
14.7683      9.119    36.152
14.9831      9.185    36.365
15.2010      9.252    36.580
15.4221      9.317    36.819
15.6464      9.393    37.075
15.8740      9.480    37.290
16.1049      9.562    37.462
16.3392      9.640    37.620
16.5768      9.716    37.765
16.8179      9.780    37.932
17.0626      9.848    38.144
17.3107      9.922    38.377
17.5625     10.000    38.617
17.8180     10.083    38.851
18.0771     10.162    39.102
18.3401     10.255    39.366
18.6068     10.357    39.603
18.8775     10.459    39.810
19.1521     10.570    39.974
19.4306     10.672    40.084
19.7133     10.761    40.187
20.0000     10.839    40.330
20.2909     10.916    40.534
20.5860     11.004    40.782
20.8855     11.095    41.061
21.1893     11.204    41.357
21.4975     11.326    41.622
21.8102     11.451    41.845
22.1274     11.576    42.041
22.4492     11.703    42.217
22.7758     11.826    42.378
23.1071     11.943    42.553
23.4432     12.063    42.760
23.7841     12.195    42.977
24.1301     12.333    43.186
24.4811     12.481    43.376
24.8372     12.630    43.531
25.1984     12.773    43.672
25.5649     12.913    43.825
25.9368     13.053    44.000
26.3141     13.197    44.206
26.6968     13.353    44.433
27.0851     13.520    44.661
27.4791     13.698    44.883
27.8788     13.887    45.090
28.2843     14.088    45.265
28.6957     14.293    45.405
29.1131     14.500    45.513
29.5365     14.703    45.597
29.9661     14.901    45.673
30.4020     15.090    45.766
30.8442     15.269    45.914
31.2929     15.456    46.141
31.7480     15.662    46.445
32.2098     15.906    46.800
32.6783     16.197    47.144
33.1536     16.527    47.422
33.6359     16.884    47.600
34.1251     17.247    47.674
34.6215     17.602    47.690
35.1250     17.955    47.686
35.6359     18.310    47.691
36.1543     18.682    47.709
36.6802     19.073    47.734
37.2137     19.492    47.761
37.7550     19.950    47.769
38.3041     20.445    47.728
38.8613     20.973    47.625
39.4265     21.529    47.454
40.0000     22.115    47.211
40.5818     22.728    46.889
41.1721     23.361    46.493
41.7710     24.020    46.021
42.3785     24.697    45.465
42.9949     25.382    44.833
43.6203     26.073    44.141
44.2548     26.769    43.408
44.8985     27.480    42.648
45.5515     28.217    41.861
46.2141     28.986    41.037
46.8863     29.789    40.174
47.5683     30.648    39.266
48.2602     31.580    38.287
48.9621     32.617    37.176
49.6743     33.749    35.827
50.3968     34.845    34.209
51.1299     35.850    32.393
51.8736     36.746    30.447
52.6281     37.488    28.483
53.3936     38.159    26.599
54.1702     38.857    24.770
54.9581     39.591    22.922
55.7575     40.348    21.001
56.5685     41.097    18.979
57.3914     41.814    16.852
58.2261     42.482    14.622
59.0730     43.081    12.293
59.9323     43.590     9.873
60.8040     43.982     7.381
61.6884     44.237     4.851
62.5857     44.361     2.324
63.4960     44.377    -0.180
64.4196     44.300    -2.655
65.3566     44.143    -5.102
66.3073     43.909    -7.528
67.2717     43.595    -9.931
68.2502     43.197   -12.302
69.2429     42.727   -14.631
70.2501     42.194   -16.914
71.2719     41.612   -19.155
72.3086     40.992   -21.371
73.3603     40.327   -23.588
74.4274     39.572   -25.800
75.5099     38.719   -27.974
76.6083     37.701   -30.005
77.7226     36.642   -31.789
78.8531     35.664   -33.396
80.0000     34.728   -34.913
81.1636     33.878   -36.399
82.3442     33.070   -37.955
83.5419     32.102   -39.470
84.7570     31.094   -40.765
85.9899     30.124   -41.852
87.2406     29.222   -42.771
88.5096     28.477   -43.632
89.7970     27.840   -44.609
91.1031     27.173   -45.716
92.4282     26.455   -46.860
93.7726     25.675   -47.958
95.1366     24.866   -48.949
96.5204     24.058   -49.824
97.9243     23.261   -50.593
99.3486     22.474   -51.256
100.794     21.699   -51.800
102.260     20.942   -52.212
103.747     20.206   -52.476
105.256     19.514   -52.598
106.787     18.871   -52.609
108.340     18.271   -52.534
109.916     17.711   -52.382
111.515     17.189   -52.166
113.137     16.693   -51.883
114.783     16.231   -51.523
116.452     15.807   -51.100
118.146     15.421   -50.637
119.865     15.071   -50.152
121.608     14.759   -49.688
123.377     14.460   -49.253
125.171     14.177   -48.829
126.992     13.902   -48.410
128.839     13.636   -47.982
130.713     13.375   -47.526
132.615     13.136   -47.046
134.543     12.913   -46.577
136.500     12.698   -46.128
138.486     12.484   -45.686
140.500     12.268   -45.220
142.544     12.053   -44.692
144.617     11.858   -44.112
146.721     11.670   -43.493
148.855     11.508   -42.845
151.020     11.366   -42.217
153.217     11.237   -41.630
155.445     11.111   -41.074
157.706     10.989   -40.525
160.000     10.877   -39.991
162.327     10.771   -39.489
164.688     10.666   -39.010
167.084     10.565   -38.554
169.514     10.460   -38.107
171.980     10.357   -37.658
174.481     10.256   -37.204
177.019     10.156   -36.738
179.594     10.065   -36.274
182.206      9.977   -35.823
184.856      9.890   -35.382
187.545      9.807   -34.949
190.273      9.725   -34.524
193.041      9.649   -34.124
195.849      9.571   -33.763
198.697      9.484   -33.419
201.587      9.387   -33.052
204.520      9.285   -32.626
207.494      9.184   -32.130
210.512      9.092   -31.574
213.574      9.013   -30.982
216.681      8.951   -30.409
219.833      8.892   -29.879
223.030      8.832   -29.362
226.274      8.778   -28.862
229.565      8.720   -28.373
232.905      8.663   -27.869
236.292      8.615   -27.370
239.729      8.569   -26.900
243.216      8.522   -26.451
246.754      8.475   -26.015
250.343      8.429   -25.606
253.984      8.373   -25.201
257.678      8.313   -24.758
261.426      8.261   -24.300
265.229      8.201   -23.825
269.087      8.145   -23.304
273.001      8.099   -22.777
276.972      8.053   -22.257
281.000      8.006   -21.723
285.088      7.965   -21.177
289.234      7.928   -20.637
293.441      7.892   -20.104
297.709      7.858   -19.578
302.040      7.825   -19.060
306.433      7.789   -18.532
310.890      7.757   -17.992
315.412      7.726   -17.443
320.000      7.700   -16.895
324.655      7.678   -16.378
329.377      7.649   -15.871
334.168      7.616   -15.336
339.028      7.584   -14.758
343.959      7.556   -14.132
348.962      7.538   -13.480
354.038      7.531   -12.845
359.188      7.528   -12.248
364.412      7.528   -11.688
369.713      7.528   -11.157
375.090      7.528   -10.646
380.546      7.528   -10.150
386.081      7.528    -9.667
391.697      7.528    -9.194
397.394      7.528    -8.730
403.175      7.528    -8.273
409.039      7.528    -7.823
414.989      7.528    -7.377
421.025      7.528    -6.936
427.149      7.528    -6.498
433.362      7.528    -6.062
439.665      7.528    -5.628
446.060      7.528    -5.195
452.548      7.528    -4.761
459.131      7.528    -4.325
465.809      7.528    -3.885
472.584      7.528    -3.440
479.458      7.528    -2.987
486.432      7.528    -2.520
493.507      7.528    -2.028
500.686      7.533    -1.509
507.968      7.543    -0.965
515.357      7.566    -0.432
522.853      7.598     0.040
530.458      7.630     0.441
538.174      7.662     0.776
546.002      7.684     1.060
553.943      7.693     1.353
562.001      7.698     1.697
570.175      7.703     2.096
578.469      7.716     2.537
586.883      7.741     2.972
595.419      7.773     3.355
604.080      7.805     3.678
612.866      7.835     3.945
621.780      7.854     4.180
630.824      7.862     4.438
640.000      7.867     4.752
649.309      7.873     5.123
658.753      7.889     5.531
668.335      7.916     5.928
678.056      7.948     6.278
687.919      7.980     6.577
697.925      8.008     6.838
708.077      8.027     7.095
718.376      8.041     7.391
728.825      8.061     7.724
739.426      8.089     8.054
750.181      8.122     8.348
761.093      8.154     8.600
772.163      8.180     8.821
783.394      8.198     9.051
794.789      8.212     9.326
806.349      8.233     9.637
818.078      8.263     9.937
829.977      8.295    10.202
842.050      8.327    10.428
854.298      8.352    10.628
866.724      8.368    10.847
879.330      8.382    11.116
892.120      8.405    11.419
905.097      8.436    11.707
918.262      8.469    11.963
931.618      8.501    12.190
945.169      8.529    12.398
958.917      8.549    12.629
972.864      8.576    12.884
987.015      8.609    13.122
1001.37      8.641    13.333
1015.94      8.673    13.513
1030.71      8.696    13.677
1045.71      8.710    13.873
1060.92      8.725    14.122
1076.35      8.750    14.393
1092.00      8.782    14.644
1107.89      8.814    14.860
1124.00      8.845    15.046
1140.35      8.866    15.224
1156.94      8.880    15.437
1173.77      8.897    15.699
1190.84      8.923    15.977
1208.16      8.956    16.236
1225.73      8.988    16.469
1243.56      9.019    16.681
1261.65      9.043    16.894
1280.00      9.066    17.134
1298.62      9.096    17.384
1317.51      9.128    17.620
1336.67      9.161    17.839
1356.11      9.191    18.043
1375.84      9.214    18.256
1395.85      9.238    18.498
1416.15      9.269    18.747
1436.75      9.301    18.983
1457.65      9.333    19.203
1478.85      9.363    19.412
1500.36      9.385    19.636
1522.19      9.411    19.890
1544.33      9.442    20.147
1566.79      9.474    20.388
1589.58      9.506    20.611
1612.70      9.531    20.825
1636.16      9.548    21.066
1659.95      9.562    21.367
1684.10      9.584    21.716
1708.60      9.615    22.080
1733.45      9.652    22.446
1758.66      9.693    22.815
1784.24      9.743    23.171
1810.19      9.795    23.509
1836.52      9.855    23.828
1863.24      9.920    24.098
1890.34      9.980    24.320
1917.83     10.032    24.527
1945.73     10.082    24.726
1974.03     10.123    24.927
2002.74     10.160    25.156
2031.87     10.193    25.423
2061.43     10.225    25.740
2091.41     10.259    26.132
2121.83     10.318    26.564
2152.69     10.395    26.967
2184.01     10.486    27.305
2215.77     10.584    27.546
2248.00     10.670    27.710
2280.70     10.743    27.849
2313.87     10.806    27.996
2347.53     10.863    28.180
2381.68     10.928    28.387
2416.32     10.993    28.595
2451.46     11.062    28.801
2487.12     11.132    28.999
2523.30     11.200    29.195
2560.00     11.270    29.394
2597.24     11.340    29.597
2635.01     11.414    29.801
2673.34     11.493    29.989
2712.23     11.573    30.153
2751.68     11.646    30.307
2791.70     11.716    30.468
2832.31     11.786    30.643
2873.50     11.856    30.834
2915.30     11.932    31.037
2957.70     12.014    31.233
3000.72     12.098    31.416
3044.37     12.185    31.585
3088.65     12.270    31.743
3133.58     12.358    31.893
3179.16     12.443    32.038
3225.40     12.530    32.177
3272.31     12.615    32.313
3319.91     12.702    32.447
3368.20     12.787    32.578
3417.19     12.875    32.709
3466.89     12.959    32.839
3517.32     13.047    32.972
3568.48     13.131    33.108
3620.39     13.219    33.252
3673.05     13.308    33.403
3726.47     13.402    33.560
3780.67     13.504    33.706
3835.67     13.607    33.835
3891.46     13.710    33.952
3948.06     13.815    34.055
4005.49     13.916    34.152
4063.75     14.021    34.246
4122.86     14.124    34.332
4182.82     14.227    34.416
4243.66     14.332    34.493
4305.39     14.433    34.568
4368.01     14.538    34.643
4431.55     14.640    34.713
4496.01     14.744    34.783
4561.40     14.848    34.848
4627.75     14.948    34.915
4695.06     15.050    34.987
4763.35     15.148    35.070
4832.64     15.250    35.172
4902.93     15.362    35.273
4974.24     15.474    35.372
5046.60     15.595    35.465
5120.00     15.722    35.532
5194.47     15.843    35.580
5270.03     15.965    35.620
5346.68     16.082    35.656
5424.45     16.197    35.703
5503.35     16.319    35.754
5583.40     16.446    35.793
5664.61     16.571    35.820
5747.01     16.696    35.840
5830.60     16.822    35.848
5915.41     16.941    35.854
6001.45     17.057    35.874
6088.74     17.181    35.901
6177.30     17.307    35.920
6267.15     17.432    35.937
6358.31     17.562    35.951
6450.80     17.693    35.954
6544.62     17.823    35.948
6639.82     17.949    35.942
6736.40     18.078    35.937
6834.38     18.210    35.925
6933.79     18.339    35.905
7034.64     18.465    35.887
7136.96     18.596    35.868
7240.77     18.726    35.838
7346.09     18.851    35.799
7452.94     18.966    35.770
7561.35     19.078    35.765
7671.33     19.193    35.789
7782.91     19.322    35.828
7896.12     19.463    35.862
8010.97     19.613    35.880
8127.49     19.771    35.864
8245.71     19.927    35.812
8365.65     20.070    35.740
8487.33     20.205    35.662
8610.78     20.329    35.587
8736.03     20.440    35.538
8863.09     20.549    35.527
8992.01     20.665    35.555
9122.80     20.801    35.607
9255.50     20.959    35.646
9390.12     21.127    35.650
9526.70     21.297    35.622
9665.27     21.464    35.564
9805.86     21.623    35.489
9948.49     21.779    35.407
10093.2     21.928    35.318
10240.0     22.070    35.233
10388.9     22.210    35.158
10540.1     22.350    35.092
10693.4     22.493    35.031
10848.9     22.643    34.965
11006.7     22.790    34.888
11166.8     22.931    34.812
11329.2     23.071    34.742
11494.0     23.211    34.682
11661.2     23.358    34.628
11830.8     23.514    34.564
12002.9     23.673    34.478
12177.5     23.822    34.374
12354.6     23.959    34.273
12534.3     24.094    34.180
12716.6     24.217    34.109
12901.6     24.351    34.065
13089.2     24.499    34.022
13279.6     24.654    33.971
13472.8     24.824    33.892
13668.8     24.981    33.779
13867.6     25.121    33.657
14069.3     25.248    33.542
14273.9     25.349    33.465
14481.5     25.464    33.443
14692.2     25.601    33.443
14905.9     25.757    33.446
15122.7     25.943    33.419
15342.7     26.129    33.338
15565.8     26.299    33.222
15792.2     26.453    33.090
16021.9     26.577    32.970
16255.0     26.688    32.901
16491.4     26.811    32.882
16731.3     26.961    32.888
16974.7     27.142    32.887
17221.6     27.347    32.842
17472.1     27.554    32.740
17726.2     27.742    32.595
17984.0     27.907    32.439
18245.6     28.056    32.295
18511.0     28.203    32.168
18780.2     28.357    32.047
19053.4     28.515    31.915
19330.5     28.665    31.768
19611.7     28.801    31.616
19897.0     28.923    31.474
20186.4     29.034    31.354
20480.0     29.145    31.260
20777.9     29.262    31.187
21080.1     29.387    31.124
21386.7     29.522    31.063
21697.8     29.659    30.998
22013.4     29.799    30.929
22333.6     29.938    30.858
22658.4     30.078    30.786
22988.0     30.217    30.714
23322.4     30.357    30.643
23661.6     30.496    30.571
24005.8     30.636    30.500
24355.0     30.776    30.430
24709.2     30.915    30.360
25068.6     31.055    30.291
25433.2     31.194    30.223
25803.2     31.334    30.156
26178.5     31.473    30.090
26559.3     31.613    30.024
26945.6     31.752    29.959
27337.5     31.892    29.896
27735.2     32.031    29.833
28138.6     32.171    29.772
28547.9     32.310    29.711
28963.1     32.450    29.652
29384.4     32.589    29.593
29811.8     32.729    29.536
30245.4     32.868    29.479
30685.3     33.008    29.424
31131.7     33.148    29.371
31584.5     33.287    29.318
32043.9     33.427    29.267
32510.0     33.566    29.217
32982.8     33.706    29.168
33462.6     33.845    29.121
33949.3     33.985    29.076
34443.1     34.124    29.032
34944.1     34.264    28.990
35452.4     34.403    28.949
35968.0     34.543    28.911
36491.2     34.682    28.875
37022.0     34.822    28.841
37560.5     34.961    28.812
38106.8     35.087    28.787
38661.1     35.201    28.770
39223.4     35.286    28.759
39793.9     35.351    28.751
